#omega	spectral weight
-1.000000e+01	4.103282e-04
-9.950000e+00	4.127751e-04
-9.900000e+00	4.152446e-04
-9.850000e+00	4.177370e-04
-9.800000e+00	4.202526e-04
-9.750000e+00	4.227917e-04
-9.700000e+00	4.253546e-04
-9.650000e+00	4.279415e-04
-9.600000e+00	4.305529e-04
-9.550000e+00	4.331890e-04
-9.500000e+00	4.358501e-04
-9.450000e+00	4.385367e-04
-9.400000e+00	4.412489e-04
-9.350000e+00	4.439872e-04
-9.300000e+00	4.467519e-04
-9.250000e+00	4.495433e-04
-9.200000e+00	4.523618e-04
-9.150000e+00	4.552078e-04
-9.100000e+00	4.580817e-04
-9.050000e+00	4.609837e-04
-9.000000e+00	4.639144e-04
-8.950000e+00	4.668740e-04
-8.900000e+00	4.698631e-04
-8.850000e+00	4.728819e-04
-8.800000e+00	4.759310e-04
-8.750000e+00	4.790106e-04
-8.700000e+00	4.821213e-04
-8.650000e+00	4.852635e-04
-8.600000e+00	4.884376e-04
-8.550000e+00	4.916441e-04
-8.500000e+00	4.948834e-04
-8.450000e+00	4.981560e-04
-8.400000e+00	5.014624e-04
-8.350000e+00	5.048031e-04
-8.300000e+00	5.081785e-04
-8.250000e+00	5.115891e-04
-8.200000e+00	5.150355e-04
-8.150000e+00	5.185182e-04
-8.100000e+00	5.220377e-04
-8.050000e+00	5.255946e-04
-8.000000e+00	5.291894e-04
-7.950000e+00	5.328227e-04
-7.900000e+00	5.364950e-04
-7.850000e+00	5.402069e-04
-7.800000e+00	5.439591e-04
-7.750000e+00	5.477521e-04
-7.700000e+00	5.515865e-04
-7.650000e+00	5.554631e-04
-7.600000e+00	5.593824e-04
-7.550000e+00	5.633450e-04
-7.500000e+00	5.673518e-04
-7.450000e+00	5.714033e-04
-7.400000e+00	5.755002e-04
-7.350000e+00	5.796433e-04
-7.300000e+00	5.838332e-04
-7.250000e+00	5.880708e-04
-7.200000e+00	5.923568e-04
-7.150000e+00	5.966920e-04
-7.100000e+00	6.010771e-04
-7.050000e+00	6.055129e-04
-7.000000e+00	6.100003e-04
-6.950000e+00	6.145402e-04
-6.900000e+00	6.191333e-04
-6.850000e+00	6.237806e-04
-6.800000e+00	6.284830e-04
-6.750000e+00	6.332413e-04
-6.700000e+00	6.380565e-04
-6.650000e+00	6.429296e-04
-6.600000e+00	6.478616e-04
-6.550000e+00	6.528534e-04
-6.500000e+00	6.579061e-04
-6.450000e+00	6.630206e-04
-6.400000e+00	6.681982e-04
-6.350000e+00	6.734399e-04
-6.300000e+00	6.787467e-04
-6.250000e+00	6.841199e-04
-6.200000e+00	6.895607e-04
-6.150000e+00	6.950701e-04
-6.100000e+00	7.006495e-04
-6.050000e+00	7.063001e-04
-6.000000e+00	7.120231e-04
-5.950000e+00	7.178200e-04
-5.900000e+00	7.236921e-04
-5.850000e+00	7.296406e-04
-5.800000e+00	7.356672e-04
-5.750000e+00	7.417731e-04
-5.700000e+00	7.479599e-04
-5.650000e+00	7.542292e-04
-5.600000e+00	7.605824e-04
-5.550000e+00	7.670212e-04
-5.500000e+00	7.735472e-04
-5.450000e+00	7.801622e-04
-5.400000e+00	7.868677e-04
-5.350000e+00	7.936657e-04
-5.300000e+00	8.005579e-04
-5.250000e+00	8.075462e-04
-5.200000e+00	8.146325e-04
-5.150000e+00	8.218187e-04
-5.100000e+00	8.291070e-04
-5.050000e+00	8.364993e-04
-5.000000e+00	8.439978e-04
-4.950000e+00	8.516047e-04
-4.900000e+00	8.593223e-04
-4.850000e+00	8.671528e-04
-4.800000e+00	8.750986e-04
-4.750000e+00	8.831622e-04
-4.700000e+00	8.913460e-04
-4.650000e+00	8.996528e-04
-4.600000e+00	9.080851e-04
-4.550000e+00	9.166456e-04
-4.500000e+00	9.253373e-04
-4.450000e+00	9.341629e-04
-4.400000e+00	9.431255e-04
-4.350000e+00	9.522282e-04
-4.300000e+00	9.614742e-04
-4.250000e+00	9.708666e-04
-4.200000e+00	9.804089e-04
-4.150000e+00	9.901046e-04
-4.100000e+00	9.999573e-04
-4.050000e+00	1.009971e-03
-4.000000e+00	1.020148e-03
-3.950000e+00	1.030494e-03
-3.900000e+00	1.041013e-03
-3.850000e+00	1.051708e-03
-3.800000e+00	1.062585e-03
-3.750000e+00	1.073646e-03
-3.700000e+00	1.084898e-03
-3.650000e+00	1.096345e-03
-3.600000e+00	1.107992e-03
-3.550000e+00	1.119844e-03
-3.500000e+00	1.131906e-03
-3.450000e+00	1.144184e-03
-3.400000e+00	1.156683e-03
-3.350000e+00	1.169410e-03
-3.300000e+00	1.182371e-03
-3.250000e+00	1.195571e-03
-3.200000e+00	1.209018e-03
-3.150000e+00	1.222718e-03
-3.100000e+00	1.236678e-03
-3.050000e+00	1.250907e-03
-3.000000e+00	1.265410e-03
-2.950000e+00	1.280197e-03
-2.900000e+00	1.295275e-03
-2.850000e+00	1.310654e-03
-2.800000e+00	1.326341e-03
-2.750000e+00	1.342347e-03
-2.700000e+00	1.358681e-03
-2.650000e+00	1.375353e-03
-2.600000e+00	1.392374e-03
-2.550000e+00	1.409754e-03
-2.500000e+00	1.427505e-03
-2.450000e+00	1.445639e-03
-2.400000e+00	1.464168e-03
-2.350000e+00	1.483106e-03
-2.300000e+00	1.502466e-03
-2.250000e+00	1.522261e-03
-2.200000e+00	1.542509e-03
-2.150000e+00	1.563222e-03
-2.100000e+00	1.584419e-03
-2.050000e+00	1.606116e-03
-2.000000e+00	1.628331e-03
-1.950000e+00	1.651083e-03
-1.900000e+00	1.674392e-03
-1.850000e+00	1.698278e-03
-1.800000e+00	1.722765e-03
-1.750000e+00	1.747873e-03
-1.700000e+00	1.773629e-03
-1.650000e+00	1.800056e-03
-1.600000e+00	1.827184e-03
-1.550000e+00	1.855039e-03
-1.500000e+00	1.883652e-03
-1.450000e+00	1.913055e-03
-1.400000e+00	1.943281e-03
-1.350000e+00	1.974366e-03
-1.300000e+00	2.006347e-03
-1.250000e+00	2.039266e-03
-1.200000e+00	2.073163e-03
-1.150000e+00	2.108085e-03
-1.100000e+00	2.144079e-03
-1.050000e+00	2.181197e-03
-1.000000e+00	2.219493e-03
-9.500000e-01	2.259024e-03
-9.000000e-01	2.299854e-03
-8.500000e-01	2.342048e-03
-8.000000e-01	2.385678e-03
-7.500000e-01	2.430819e-03
-7.000000e-01	2.477554e-03
-6.500000e-01	2.525970e-03
-6.000000e-01	2.576161e-03
-5.500000e-01	2.628229e-03
-5.000000e-01	2.682283e-03
-4.500000e-01	2.738442e-03
-4.000000e-01	2.796833e-03
-3.500000e-01	2.857596e-03
-3.000000e-01	2.920880e-03
-2.500000e-01	2.986849e-03
-2.000000e-01	3.055680e-03
-1.500000e-01	3.127567e-03
-1.000000e-01	3.202721e-03
-5.000000e-02	3.281373e-03
1.421085e-13	3.363778e-03
5.000000e-02	3.450212e-03
1.000000e-01	3.540983e-03
1.500000e-01	3.636428e-03
2.000000e-01	3.736919e-03
2.500000e-01	3.842870e-03
3.000000e-01	3.954739e-03
3.500000e-01	4.073036e-03
4.000000e-01	4.198331e-03
4.500000e-01	4.331260e-03
5.000000e-01	4.472538e-03
5.500000e-01	4.622966e-03
6.000000e-01	4.783452e-03
6.500000e-01	4.955022e-03
7.000000e-01	5.138841e-03
7.500000e-01	5.336236e-03
8.000000e-01	5.548727e-03
8.500000e-01	5.778056e-03
9.000000e-01	6.026235e-03
9.500000e-01	6.295590e-03
1.000000e+00	6.588830e-03
1.050000e+00	6.909116e-03
1.100000e+00	7.260164e-03
1.150000e+00	7.646359e-03
1.200000e+00	8.072911e-03
1.250000e+00	8.546039e-03
1.300000e+00	9.073224e-03
1.350000e+00	9.663520e-03
1.400000e+00	1.032796e-02
1.450000e+00	1.108012e-02
1.500000e+00	1.193681e-02
1.550000e+00	1.291903e-02
1.600000e+00	1.405333e-02
1.650000e+00	1.537354e-02
1.700000e+00	1.692328e-02
1.750000e+00	1.875949e-02
1.800000e+00	2.095739e-02
1.850000e+00	2.361769e-02
1.900000e+00	2.687713e-02
1.950000e+00	3.092394e-02
2.000000e+00	3.602078e-02
2.050000e+00	4.253848e-02
2.100000e+00	5.100427e-02
2.150000e+00	6.216555e-02
2.200000e+00	7.705534e-02
2.250000e+00	9.699331e-02
2.300000e+00	1.233032e-01
2.350000e+00	1.561978e-01
2.400000e+00	1.920786e-01
2.450000e+00	2.204118e-01
2.500000e+00	2.271457e-01
2.550000e+00	2.082100e-01
2.600000e+00	1.745429e-01
2.650000e+00	1.396080e-01
2.700000e+00	1.101982e-01
2.750000e+00	8.753336e-02
2.800000e+00	7.061405e-02
2.850000e+00	5.805087e-02
2.900000e+00	4.866182e-02
2.950000e+00	4.156751e-02
3.000000e+00	3.614307e-02
3.050000e+00	3.195009e-02
3.100000e+00	2.868044e-02
3.150000e+00	2.611596e-02
3.200000e+00	2.410083e-02
3.250000e+00	2.252293e-02
3.300000e+00	2.130146e-02
3.350000e+00	2.037855e-02
3.400000e+00	1.971385e-02
3.450000e+00	1.928098e-02
3.500000e+00	1.906559e-02
3.550000e+00	1.906463e-02
3.600000e+00	1.928685e-02
3.650000e+00	1.975460e-02
3.700000e+00	2.050739e-02
3.750000e+00	2.160771e-02
3.800000e+00	2.314980e-02
3.850000e+00	2.527200e-02
3.900000e+00	2.817073e-02
3.950000e+00	3.210673e-02
4.000000e+00	3.736870e-02
4.050000e+00	4.410081e-02
4.100000e+00	5.183082e-02
4.150000e+00	5.875332e-02
4.200000e+00	6.189828e-02
4.250000e+00	5.959719e-02
4.300000e+00	5.348803e-02
4.350000e+00	4.655422e-02
4.400000e+00	4.063336e-02
4.450000e+00	3.622330e-02
4.500000e+00	3.319845e-02
4.550000e+00	3.128765e-02
4.600000e+00	3.025091e-02
4.650000e+00	2.991842e-02
4.700000e+00	3.018715e-02
4.750000e+00	3.101031e-02
4.800000e+00	3.239026e-02
4.850000e+00	3.437729e-02
4.900000e+00	3.707507e-02
4.950000e+00	4.065342e-02
5.000000e+00	4.536849e-02
5.050000e+00	5.158705e-02
5.100000e+00	5.979737e-02
5.150000e+00	7.054742e-02
5.200000e+00	8.415782e-02
5.250000e+00	9.996835e-02
5.300000e+00	1.152333e-01
5.350000e+00	1.253270e-01
5.400000e+00	1.273787e-01
5.450000e+00	1.235364e-01
5.500000e+00	1.183565e-01
5.550000e+00	1.148704e-01
5.600000e+00	1.139038e-01
5.650000e+00	1.149643e-01
5.700000e+00	1.171959e-01
5.750000e+00	1.203191e-01
5.800000e+00	1.248408e-01
5.850000e+00	1.312654e-01
5.900000e+00	1.390065e-01
5.950000e+00	1.463868e-01
6.000000e+00	1.524578e-01
6.050000e+00	1.582480e-01
6.100000e+00	1.656208e-01
6.150000e+00	1.754975e-01
6.200000e+00	1.867991e-01
6.250000e+00	1.972124e-01
6.300000e+00	2.056447e-01
6.350000e+00	2.133619e-01
6.400000e+00	2.224544e-01
6.450000e+00	2.341308e-01
6.500000e+00	2.477344e-01
6.550000e+00	2.612406e-01
6.600000e+00	2.732685e-01
6.650000e+00	2.845574e-01
6.700000e+00	2.970824e-01
6.750000e+00	3.122232e-01
6.800000e+00	3.295989e-01
6.850000e+00	3.471688e-01
6.900000e+00	3.633516e-01
6.950000e+00	3.792897e-01
7.000000e+00	3.981327e-01
7.050000e+00	4.218706e-01
7.100000e+00	4.488139e-01
7.150000e+00	4.741882e-01
7.200000e+00	4.958514e-01
7.250000e+00	5.175441e-01
7.300000e+00	5.438356e-01
7.350000e+00	5.735051e-01
7.400000e+00	5.975062e-01
7.450000e+00	6.051193e-01
7.500000e+00	5.962536e-01
7.550000e+00	5.817837e-01
7.600000e+00	5.703600e-01
7.650000e+00	5.612294e-01
7.700000e+00	5.477712e-01
7.750000e+00	5.266185e-01
7.800000e+00	5.025237e-01
7.850000e+00	4.823470e-01
7.900000e+00	4.673994e-01
7.950000e+00	4.533986e-01
8.000000e+00	4.358522e-01
8.050000e+00	4.151791e-01
8.100000e+00	3.954937e-01
8.150000e+00	3.796437e-01
8.200000e+00	3.670372e-01
8.250000e+00	3.549894e-01
8.300000e+00	3.414790e-01
8.350000e+00	3.269248e-01
8.400000e+00	3.134423e-01
8.450000e+00	3.026401e-01
8.500000e+00	2.941161e-01
8.550000e+00	2.860553e-01
8.600000e+00	2.771975e-01
8.650000e+00	2.677719e-01
8.700000e+00	2.592295e-01
8.750000e+00	2.530622e-01
8.800000e+00	2.490862e-01
8.850000e+00	2.454908e-01
8.900000e+00	2.412022e-01
8.950000e+00	2.369554e-01
9.000000e+00	2.340887e-01
9.050000e+00	2.331518e-01
9.100000e+00	2.333420e-01
9.150000e+00	2.336389e-01
9.200000e+00	2.343867e-01
9.250000e+00	2.365910e-01
9.300000e+00	2.406385e-01
9.350000e+00	2.462733e-01
9.400000e+00	2.530520e-01
9.450000e+00	2.610765e-01
9.500000e+00	2.708241e-01
9.550000e+00	2.817005e-01
9.600000e+00	2.911116e-01
9.650000e+00	2.949692e-01
9.700000e+00	2.889331e-01
9.750000e+00	2.714598e-01
9.800000e+00	2.460544e-01
9.850000e+00	2.193678e-01
9.900000e+00	1.970830e-01
9.950000e+00	1.817204e-01
1.000000e+01	1.728633e-01
1.005000e+01	1.678410e-01
1.010000e+01	1.621080e-01
1.015000e+01	1.510831e-01
1.020000e+01	1.341879e-01
1.025000e+01	1.151283e-01
1.030000e+01	9.749909e-02
1.035000e+01	8.267287e-02
1.040000e+01	7.069456e-02
1.045000e+01	6.122946e-02
1.050000e+01	5.383610e-02
1.055000e+01	4.802594e-02
1.060000e+01	4.333036e-02
1.065000e+01	3.938350e-02
1.070000e+01	3.598045e-02
1.075000e+01	3.305911e-02
1.080000e+01	3.060169e-02
1.085000e+01	2.854800e-02
1.090000e+01	2.679248e-02
1.095000e+01	2.523311e-02
1.100000e+01	2.381385e-02
1.105000e+01	2.253999e-02
1.110000e+01	2.143942e-02
1.115000e+01	2.050087e-02
1.120000e+01	1.966797e-02
1.125000e+01	1.888936e-02
1.130000e+01	1.814792e-02
1.135000e+01	1.744373e-02
1.140000e+01	1.676286e-02
1.145000e+01	1.607904e-02
1.150000e+01	1.539348e-02
1.155000e+01	1.473287e-02
1.160000e+01	1.411633e-02
1.165000e+01	1.355294e-02
1.170000e+01	1.305323e-02
1.175000e+01	1.262986e-02
1.180000e+01	1.228855e-02
1.185000e+01	1.202872e-02
1.190000e+01	1.185259e-02
1.195000e+01	1.176543e-02
1.200000e+01	1.177987e-02
1.205000e+01	1.192219e-02
1.210000e+01	1.222720e-02
1.215000e+01	1.272316e-02
1.220000e+01	1.339929e-02
1.225000e+01	1.414692e-02
1.230000e+01	1.470758e-02
1.235000e+01	1.479101e-02
1.240000e+01	1.436284e-02
1.245000e+01	1.363711e-02
1.250000e+01	1.276531e-02
1.255000e+01	1.178459e-02
1.260000e+01	1.077808e-02
1.265000e+01	9.866407e-03
1.270000e+01	9.113166e-03
1.275000e+01	8.518403e-03
1.280000e+01	8.055307e-03
1.285000e+01	7.694378e-03
1.290000e+01	7.411594e-03
1.295000e+01	7.189201e-03
1.300000e+01	7.014563e-03
1.305000e+01	6.878703e-03
1.310000e+01	6.774974e-03
1.315000e+01	6.698523e-03
1.320000e+01	6.645969e-03
1.325000e+01	6.615168e-03
1.330000e+01	6.605184e-03
1.335000e+01	6.615246e-03
1.340000e+01	6.643746e-03
1.345000e+01	6.688568e-03
1.350000e+01	6.748070e-03
1.355000e+01	6.823485e-03
1.360000e+01	6.918488e-03
1.365000e+01	7.034575e-03
1.370000e+01	7.168875e-03
1.375000e+01	7.316345e-03
1.380000e+01	7.474991e-03
1.385000e+01	7.651241e-03
1.390000e+01	7.853979e-03
1.395000e+01	8.084490e-03
1.400000e+01	8.334840e-03
1.405000e+01	8.595550e-03
1.410000e+01	8.867675e-03
1.415000e+01	9.165447e-03
1.420000e+01	9.501642e-03
1.425000e+01	9.874956e-03
1.430000e+01	1.027200e-02
1.435000e+01	1.068014e-02
1.440000e+01	1.110423e-02
1.445000e+01	1.156573e-02
1.450000e+01	1.208217e-02
1.455000e+01	1.265138e-02
1.460000e+01	1.325529e-02
1.465000e+01	1.387669e-02
1.470000e+01	1.451883e-02
1.475000e+01	1.520769e-02
1.480000e+01	1.596384e-02
1.485000e+01	1.677479e-02
1.490000e+01	1.759699e-02
1.495000e+01	1.838192e-02
1.500000e+01	1.910833e-02
1.505000e+01	1.979721e-02
1.510000e+01	2.047819e-02
1.515000e+01	2.117019e-02
1.520000e+01	2.188855e-02
1.525000e+01	2.264410e-02
1.530000e+01	2.346440e-02
1.535000e+01	2.441082e-02
1.540000e+01	2.552030e-02
1.545000e+01	2.674543e-02
1.550000e+01	2.796594e-02
1.555000e+01	2.908262e-02
1.560000e+01	3.013627e-02
1.565000e+01	3.126580e-02
1.570000e+01	3.254241e-02
1.575000e+01	3.388732e-02
1.580000e+01	3.514371e-02
1.585000e+01	3.623775e-02
1.590000e+01	3.727532e-02
1.595000e+01	3.842433e-02
1.600000e+01	3.973381e-02
1.605000e+01	4.108651e-02
1.610000e+01	4.231747e-02
1.615000e+01	4.338689e-02
1.620000e+01	4.442009e-02
1.625000e+01	4.557841e-02
1.630000e+01	4.689952e-02
1.635000e+01	4.825779e-02
1.640000e+01	4.948105e-02
1.645000e+01	5.052611e-02
1.650000e+01	5.152939e-02
1.655000e+01	5.268314e-02
1.660000e+01	5.404225e-02
1.665000e+01	5.545259e-02
1.670000e+01	5.667789e-02
1.675000e+01	5.764472e-02
1.680000e+01	5.855771e-02
1.685000e+01	5.970017e-02
1.690000e+01	6.112082e-02
1.695000e+01	6.254261e-02
1.700000e+01	6.360573e-02
1.705000e+01	6.426961e-02
1.710000e+01	6.488940e-02
1.715000e+01	6.579433e-02
1.720000e+01	6.690079e-02
1.725000e+01	6.774641e-02
1.730000e+01	6.797262e-02
1.735000e+01	6.777749e-02
1.740000e+01	6.766122e-02
1.745000e+01	6.784097e-02
1.750000e+01	6.803345e-02
1.755000e+01	6.773716e-02
1.760000e+01	6.683464e-02
1.765000e+01	6.574337e-02
1.770000e+01	6.486593e-02
1.775000e+01	6.417417e-02
1.780000e+01	6.327756e-02
1.785000e+01	6.186802e-02
1.790000e+01	6.011769e-02
1.795000e+01	5.843527e-02
1.800000e+01	5.698866e-02
1.805000e+01	5.559015e-02
1.810000e+01	5.393946e-02
1.815000e+01	5.200299e-02
1.820000e+01	5.005345e-02
1.825000e+01	4.832998e-02
1.830000e+01	4.682078e-02
1.835000e+01	4.532465e-02
1.840000e+01	4.368923e-02
1.845000e+01	4.199987e-02
1.850000e+01	4.045705e-02
1.855000e+01	3.914765e-02
1.860000e+01	3.797960e-02
1.865000e+01	3.679064e-02
1.870000e+01	3.553832e-02
1.875000e+01	3.434729e-02
1.880000e+01	3.333751e-02
1.885000e+01	3.248978e-02
1.890000e+01	3.166695e-02
1.895000e+01	3.075714e-02
1.900000e+01	2.981774e-02
1.905000e+01	2.899665e-02
1.910000e+01	2.833486e-02
1.915000e+01	2.771922e-02
1.920000e+01	2.698311e-02
1.925000e+01	2.607609e-02
1.930000e+01	2.512879e-02
1.935000e+01	2.426295e-02
1.940000e+01	2.343218e-02
1.945000e+01	2.248655e-02
1.950000e+01	2.132928e-02
1.955000e+01	2.003713e-02
1.960000e+01	1.877118e-02
1.965000e+01	1.759092e-02
1.970000e+01	1.643650e-02
1.975000e+01	1.523278e-02
1.980000e+01	1.398598e-02
1.985000e+01	1.278899e-02
1.990000e+01	1.171477e-02
1.995000e+01	1.075689e-02
