#omega	spectral weight
-1.000000e+01	2.358388e-04
-9.950000e+00	2.374398e-04
-9.900000e+00	2.390586e-04
-9.850000e+00	2.406955e-04
-9.800000e+00	2.423507e-04
-9.750000e+00	2.440246e-04
-9.700000e+00	2.457174e-04
-9.650000e+00	2.474296e-04
-9.600000e+00	2.491613e-04
-9.550000e+00	2.509130e-04
-9.500000e+00	2.526849e-04
-9.450000e+00	2.544775e-04
-9.400000e+00	2.562910e-04
-9.350000e+00	2.581258e-04
-9.300000e+00	2.599823e-04
-9.250000e+00	2.618608e-04
-9.200000e+00	2.637618e-04
-9.150000e+00	2.656856e-04
-9.100000e+00	2.676326e-04
-9.050000e+00	2.696033e-04
-9.000000e+00	2.715980e-04
-8.950000e+00	2.736172e-04
-8.900000e+00	2.756613e-04
-8.850000e+00	2.777308e-04
-8.800000e+00	2.798262e-04
-8.750000e+00	2.819478e-04
-8.700000e+00	2.840963e-04
-8.650000e+00	2.862720e-04
-8.600000e+00	2.884756e-04
-8.550000e+00	2.907074e-04
-8.500000e+00	2.929682e-04
-8.450000e+00	2.952583e-04
-8.400000e+00	2.975784e-04
-8.350000e+00	2.999291e-04
-8.300000e+00	3.023109e-04
-8.250000e+00	3.047245e-04
-8.200000e+00	3.071704e-04
-8.150000e+00	3.096494e-04
-8.100000e+00	3.121621e-04
-8.050000e+00	3.147091e-04
-8.000000e+00	3.172911e-04
-7.950000e+00	3.199089e-04
-7.900000e+00	3.225632e-04
-7.850000e+00	3.252548e-04
-7.800000e+00	3.279843e-04
-7.750000e+00	3.307527e-04
-7.700000e+00	3.335607e-04
-7.650000e+00	3.364093e-04
-7.600000e+00	3.392991e-04
-7.550000e+00	3.422312e-04
-7.500000e+00	3.452064e-04
-7.450000e+00	3.482258e-04
-7.400000e+00	3.512902e-04
-7.350000e+00	3.544007e-04
-7.300000e+00	3.575582e-04
-7.250000e+00	3.607640e-04
-7.200000e+00	3.640190e-04
-7.150000e+00	3.673244e-04
-7.100000e+00	3.706813e-04
-7.050000e+00	3.740910e-04
-7.000000e+00	3.775547e-04
-6.950000e+00	3.810737e-04
-6.900000e+00	3.846492e-04
-6.850000e+00	3.882827e-04
-6.800000e+00	3.919755e-04
-6.750000e+00	3.957292e-04
-6.700000e+00	3.995451e-04
-6.650000e+00	4.034249e-04
-6.600000e+00	4.073701e-04
-6.550000e+00	4.113824e-04
-6.500000e+00	4.154636e-04
-6.450000e+00	4.196153e-04
-6.400000e+00	4.238394e-04
-6.350000e+00	4.281379e-04
-6.300000e+00	4.325126e-04
-6.250000e+00	4.369656e-04
-6.200000e+00	4.414990e-04
-6.150000e+00	4.461151e-04
-6.100000e+00	4.508160e-04
-6.050000e+00	4.556041e-04
-6.000000e+00	4.604818e-04
-5.950000e+00	4.654517e-04
-5.900000e+00	4.705164e-04
-5.850000e+00	4.756786e-04
-5.800000e+00	4.809412e-04
-5.750000e+00	4.863070e-04
-5.700000e+00	4.917791e-04
-5.650000e+00	4.973608e-04
-5.600000e+00	5.030552e-04
-5.550000e+00	5.088660e-04
-5.500000e+00	5.147965e-04
-5.450000e+00	5.208506e-04
-5.400000e+00	5.270321e-04
-5.350000e+00	5.333451e-04
-5.300000e+00	5.397939e-04
-5.250000e+00	5.463827e-04
-5.200000e+00	5.531163e-04
-5.150000e+00	5.599993e-04
-5.100000e+00	5.670369e-04
-5.050000e+00	5.742342e-04
-5.000000e+00	5.815967e-04
-4.950000e+00	5.891302e-04
-4.900000e+00	5.968406e-04
-4.850000e+00	6.047342e-04
-4.800000e+00	6.128177e-04
-4.750000e+00	6.210978e-04
-4.700000e+00	6.295818e-04
-4.650000e+00	6.382772e-04
-4.600000e+00	6.471921e-04
-4.550000e+00	6.563348e-04
-4.500000e+00	6.657140e-04
-4.450000e+00	6.753390e-04
-4.400000e+00	6.852195e-04
-4.350000e+00	6.953657e-04
-4.300000e+00	7.057883e-04
-4.250000e+00	7.164988e-04
-4.200000e+00	7.275091e-04
-4.150000e+00	7.388318e-04
-4.100000e+00	7.504803e-04
-4.050000e+00	7.624686e-04
-4.000000e+00	7.748117e-04
-3.950000e+00	7.875253e-04
-3.900000e+00	8.006262e-04
-3.850000e+00	8.141320e-04
-3.800000e+00	8.280615e-04
-3.750000e+00	8.424347e-04
-3.700000e+00	8.572728e-04
-3.650000e+00	8.725982e-04
-3.600000e+00	8.884348e-04
-3.550000e+00	9.048084e-04
-3.500000e+00	9.217459e-04
-3.450000e+00	9.392764e-04
-3.400000e+00	9.574310e-04
-3.350000e+00	9.762428e-04
-3.300000e+00	9.957471e-04
-3.250000e+00	1.015982e-03
-3.200000e+00	1.036988e-03
-3.150000e+00	1.058809e-03
-3.100000e+00	1.081492e-03
-3.050000e+00	1.105088e-03
-3.000000e+00	1.129650e-03
-2.950000e+00	1.155238e-03
-2.900000e+00	1.181914e-03
-2.850000e+00	1.209748e-03
-2.800000e+00	1.238813e-03
-2.750000e+00	1.269190e-03
-2.700000e+00	1.300965e-03
-2.650000e+00	1.334235e-03
-2.600000e+00	1.369101e-03
-2.550000e+00	1.405676e-03
-2.500000e+00	1.444084e-03
-2.450000e+00	1.484459e-03
-2.400000e+00	1.526948e-03
-2.350000e+00	1.571713e-03
-2.300000e+00	1.618931e-03
-2.250000e+00	1.668799e-03
-2.200000e+00	1.721534e-03
-2.150000e+00	1.777375e-03
-2.100000e+00	1.836588e-03
-2.050000e+00	1.899468e-03
-2.000000e+00	1.966344e-03
-1.950000e+00	2.037584e-03
-1.900000e+00	2.113600e-03
-1.850000e+00	2.194854e-03
-1.800000e+00	2.281866e-03
-1.750000e+00	2.375225e-03
-1.700000e+00	2.475597e-03
-1.650000e+00	2.583738e-03
-1.600000e+00	2.700514e-03
-1.550000e+00	2.826912e-03
-1.500000e+00	2.964069e-03
-1.450000e+00	3.113296e-03
-1.400000e+00	3.276113e-03
-1.350000e+00	3.454289e-03
-1.300000e+00	3.649892e-03
-1.250000e+00	3.865355e-03
-1.200000e+00	4.103553e-03
-1.150000e+00	4.367906e-03
-1.100000e+00	4.662504e-03
-1.050000e+00	4.992272e-03
-1.000000e+00	5.363185e-03
-9.500000e-01	5.782546e-03
-9.000000e-01	6.259353e-03
-8.500000e-01	6.804791e-03
-8.000000e-01	7.432900e-03
-7.500000e-01	8.161480e-03
-7.000000e-01	9.013349e-03
-6.500000e-01	1.001811e-02
-6.000000e-01	1.121463e-02
-5.500000e-01	1.265466e-02
-5.000000e-01	1.440794e-02
-4.500000e-01	1.656968e-02
-4.000000e-01	1.927104e-02
-3.500000e-01	2.269325e-02
-3.000000e-01	2.708431e-02
-2.500000e-01	3.277375e-02
-2.000000e-01	4.017796e-02
-1.500000e-01	4.978471e-02
-1.000000e-01	6.207325e-02
-5.000000e-02	7.728709e-02
1.421085e-13	9.495792e-02
5.000000e-02	1.129147e-01
1.000000e-01	1.266460e-01
1.500000e-01	1.314609e-01
2.000000e-01	1.258591e-01
2.500000e-01	1.125132e-01
3.000000e-01	9.646027e-02
3.500000e-01	8.153049e-02
4.000000e-01	6.908473e-02
4.500000e-01	5.922766e-02
5.000000e-01	5.160933e-02
5.500000e-01	4.558231e-02
6.000000e-01	4.050218e-02
6.500000e-01	3.606240e-02
7.000000e-01	3.225442e-02
7.500000e-01	2.909026e-02
8.000000e-01	2.658277e-02
8.500000e-01	2.479195e-02
9.000000e-01	2.368636e-02
9.500000e-01	2.310470e-02
1.000000e+00	2.289098e-02
1.050000e+00	2.291767e-02
1.100000e+00	2.299572e-02
1.150000e+00	2.292912e-02
1.200000e+00	2.253957e-02
1.250000e+00	2.169429e-02
1.300000e+00	2.051872e-02
1.350000e+00	1.933033e-02
1.400000e+00	1.835390e-02
1.450000e+00	1.765426e-02
1.500000e+00	1.717477e-02
1.550000e+00	1.683973e-02
1.600000e+00	1.667685e-02
1.650000e+00	1.675533e-02
1.700000e+00	1.705498e-02
1.750000e+00	1.751008e-02
1.800000e+00	1.810802e-02
1.850000e+00	1.878688e-02
1.900000e+00	1.933124e-02
1.950000e+00	1.952064e-02
2.000000e+00	1.926082e-02
2.050000e+00	1.857788e-02
2.100000e+00	1.763752e-02
2.150000e+00	1.668722e-02
2.200000e+00	1.587573e-02
2.250000e+00	1.518990e-02
2.300000e+00	1.462963e-02
2.350000e+00	1.426958e-02
2.400000e+00	1.410113e-02
2.450000e+00	1.402881e-02
2.500000e+00	1.405660e-02
2.550000e+00	1.429222e-02
2.600000e+00	1.477241e-02
2.650000e+00	1.544763e-02
2.700000e+00	1.626072e-02
2.750000e+00	1.707257e-02
2.800000e+00	1.762453e-02
2.850000e+00	1.772215e-02
2.900000e+00	1.736932e-02
2.950000e+00	1.669900e-02
3.000000e+00	1.589974e-02
3.050000e+00	1.513802e-02
3.100000e+00	1.445126e-02
3.150000e+00	1.383453e-02
3.200000e+00	1.335390e-02
3.250000e+00	1.304118e-02
3.300000e+00	1.283207e-02
3.350000e+00	1.270081e-02
3.400000e+00	1.271272e-02
3.450000e+00	1.289945e-02
3.500000e+00	1.321851e-02
3.550000e+00	1.361675e-02
3.600000e+00	1.398892e-02
3.650000e+00	1.414727e-02
3.700000e+00	1.397736e-02
3.750000e+00	1.353197e-02
3.800000e+00	1.294353e-02
3.850000e+00	1.233880e-02
3.900000e+00	1.176594e-02
3.950000e+00	1.124053e-02
4.000000e+00	1.083978e-02
4.050000e+00	1.063371e-02
4.100000e+00	1.059423e-02
4.150000e+00	1.063894e-02
4.200000e+00	1.070359e-02
4.250000e+00	1.071180e-02
4.300000e+00	1.057171e-02
4.350000e+00	1.026663e-02
4.400000e+00	9.874779e-03
4.450000e+00	9.479181e-03
4.500000e+00	9.110103e-03
4.550000e+00	8.785496e-03
4.600000e+00	8.535093e-03
4.650000e+00	8.358368e-03
4.700000e+00	8.220748e-03
4.750000e+00	8.107229e-03
4.800000e+00	8.030713e-03
4.850000e+00	7.990974e-03
4.900000e+00	7.974212e-03
4.950000e+00	7.980940e-03
5.000000e+00	8.023048e-03
5.050000e+00	8.110423e-03
5.100000e+00	8.249756e-03
5.150000e+00	8.443957e-03
5.200000e+00	8.692501e-03
5.250000e+00	8.994338e-03
5.300000e+00	9.349564e-03
5.350000e+00	9.759221e-03
5.400000e+00	1.022593e-02
5.450000e+00	1.075439e-02
5.500000e+00	1.135046e-02
5.550000e+00	1.202046e-02
5.600000e+00	1.277227e-02
5.650000e+00	1.361642e-02
5.700000e+00	1.456240e-02
5.750000e+00	1.561519e-02
5.800000e+00	1.678054e-02
5.850000e+00	1.806757e-02
5.900000e+00	1.947985e-02
5.950000e+00	2.101547e-02
6.000000e+00	2.268746e-02
6.050000e+00	2.453339e-02
6.100000e+00	2.660279e-02
6.150000e+00	2.895373e-02
6.200000e+00	3.165584e-02
6.250000e+00	3.476811e-02
6.300000e+00	3.832810e-02
6.350000e+00	4.238908e-02
6.400000e+00	4.702408e-02
6.450000e+00	5.227160e-02
6.500000e+00	5.812617e-02
6.550000e+00	6.457389e-02
6.600000e+00	7.160105e-02
6.650000e+00	7.918825e-02
6.700000e+00	8.727761e-02
6.750000e+00	9.584127e-02
6.800000e+00	1.051045e-01
6.850000e+00	1.154813e-01
6.900000e+00	1.273216e-01
6.950000e+00	1.408775e-01
7.000000e+00	1.560998e-01
7.050000e+00	1.721165e-01
7.100000e+00	1.875568e-01
7.150000e+00	2.014922e-01
7.200000e+00	2.133283e-01
7.250000e+00	2.225497e-01
7.300000e+00	2.287297e-01
7.350000e+00	2.312877e-01
7.400000e+00	2.296243e-01
7.450000e+00	2.232900e-01
7.500000e+00	2.122081e-01
7.550000e+00	1.971944e-01
7.600000e+00	1.798430e-01
7.650000e+00	1.619409e-01
7.700000e+00	1.453542e-01
7.750000e+00	1.318501e-01
7.800000e+00	1.227190e-01
7.850000e+00	1.185024e-01
7.900000e+00	1.189474e-01
7.950000e+00	1.232063e-01
8.000000e+00	1.302191e-01
8.050000e+00	1.391090e-01
8.100000e+00	1.491295e-01
8.150000e+00	1.594291e-01
8.200000e+00	1.691092e-01
8.250000e+00	1.773566e-01
8.300000e+00	1.837534e-01
8.350000e+00	1.884110e-01
8.400000e+00	1.917890e-01
8.450000e+00	1.944986e-01
8.500000e+00	1.968334e-01
8.550000e+00	1.988298e-01
8.600000e+00	2.003859e-01
8.650000e+00	2.008520e-01
8.700000e+00	1.999099e-01
8.750000e+00	1.985146e-01
8.800000e+00	1.976999e-01
8.850000e+00	1.977284e-01
8.900000e+00	1.985056e-01
8.950000e+00	1.993234e-01
9.000000e+00	1.990152e-01
9.050000e+00	1.970008e-01
9.100000e+00	1.937082e-01
9.150000e+00	1.899349e-01
9.200000e+00	1.861771e-01
9.250000e+00	1.827688e-01
9.300000e+00	1.797870e-01
9.350000e+00	1.770567e-01
9.400000e+00	1.748759e-01
9.450000e+00	1.735855e-01
9.500000e+00	1.729433e-01
9.550000e+00	1.731177e-01
9.600000e+00	1.747714e-01
9.650000e+00	1.777058e-01
9.700000e+00	1.810214e-01
9.750000e+00	1.837713e-01
9.800000e+00	1.847577e-01
9.850000e+00	1.835853e-01
9.900000e+00	1.812378e-01
9.950000e+00	1.788738e-01
1.000000e+01	1.775702e-01
1.005000e+01	1.780232e-01
1.010000e+01	1.801370e-01
1.015000e+01	1.840087e-01
1.020000e+01	1.896245e-01
1.025000e+01	1.955878e-01
1.030000e+01	2.001841e-01
1.035000e+01	2.027378e-01
1.040000e+01	2.030892e-01
1.045000e+01	2.017342e-01
1.050000e+01	1.999320e-01
1.055000e+01	1.980133e-01
1.060000e+01	1.940882e-01
1.065000e+01	1.855996e-01
1.070000e+01	1.715612e-01
1.075000e+01	1.527522e-01
1.080000e+01	1.317001e-01
1.085000e+01	1.114719e-01
1.090000e+01	9.366097e-02
1.095000e+01	7.856995e-02
1.100000e+01	6.614690e-02
1.105000e+01	5.610017e-02
1.110000e+01	4.797248e-02
1.115000e+01	4.136889e-02
1.120000e+01	3.599481e-02
1.125000e+01	3.161018e-02
1.130000e+01	2.801738e-02
1.135000e+01	2.505354e-02
1.140000e+01	2.258554e-02
1.145000e+01	2.050815e-02
1.150000e+01	1.874050e-02
1.155000e+01	1.722100e-02
1.160000e+01	1.590271e-02
1.165000e+01	1.474943e-02
1.170000e+01	1.373299e-02
1.175000e+01	1.283117e-02
1.180000e+01	1.202623e-02
1.185000e+01	1.130386e-02
1.190000e+01	1.065240e-02
1.195000e+01	1.006225e-02
1.200000e+01	9.525448e-03
1.205000e+01	9.035333e-03
1.210000e+01	8.586290e-03
1.215000e+01	8.173560e-03
1.220000e+01	7.793077e-03
1.225000e+01	7.441354e-03
1.230000e+01	7.115379e-03
1.235000e+01	6.812541e-03
1.240000e+01	6.530564e-03
1.245000e+01	6.267458e-03
1.250000e+01	6.021470e-03
1.255000e+01	5.791058e-03
1.260000e+01	5.574855e-03
1.265000e+01	5.371646e-03
1.270000e+01	5.180349e-03
1.275000e+01	4.999996e-03
1.280000e+01	4.829720e-03
1.285000e+01	4.668741e-03
1.290000e+01	4.516355e-03
1.295000e+01	4.371927e-03
1.300000e+01	4.234882e-03
1.305000e+01	4.104698e-03
1.310000e+01	3.980898e-03
1.315000e+01	3.863051e-03
1.320000e+01	3.750760e-03
1.325000e+01	3.643663e-03
1.330000e+01	3.541427e-03
1.335000e+01	3.443748e-03
1.340000e+01	3.350346e-03
1.345000e+01	3.260960e-03
1.350000e+01	3.175354e-03
1.355000e+01	3.093307e-03
1.360000e+01	3.014613e-03
1.365000e+01	2.939085e-03
1.370000e+01	2.866547e-03
1.375000e+01	2.796835e-03
1.380000e+01	2.729798e-03
1.385000e+01	2.665294e-03
1.390000e+01	2.603191e-03
1.395000e+01	2.543367e-03
1.400000e+01	2.485706e-03
1.405000e+01	2.430100e-03
1.410000e+01	2.376450e-03
1.415000e+01	2.324660e-03
1.420000e+01	2.274641e-03
1.425000e+01	2.226311e-03
1.430000e+01	2.179591e-03
1.435000e+01	2.134408e-03
1.440000e+01	2.090691e-03
1.445000e+01	2.048376e-03
1.450000e+01	2.007401e-03
1.455000e+01	1.967708e-03
1.460000e+01	1.929241e-03
1.465000e+01	1.891949e-03
1.470000e+01	1.855783e-03
1.475000e+01	1.820696e-03
1.480000e+01	1.786643e-03
1.485000e+01	1.753584e-03
1.490000e+01	1.721478e-03
1.495000e+01	1.690288e-03
1.500000e+01	1.659979e-03
1.505000e+01	1.630515e-03
1.510000e+01	1.601865e-03
1.515000e+01	1.573998e-03
1.520000e+01	1.546884e-03
1.525000e+01	1.520497e-03
1.530000e+01	1.494809e-03
1.535000e+01	1.469795e-03
1.540000e+01	1.445430e-03
1.545000e+01	1.421693e-03
1.550000e+01	1.398560e-03
1.555000e+01	1.376011e-03
1.560000e+01	1.354026e-03
1.565000e+01	1.332585e-03
1.570000e+01	1.311670e-03
1.575000e+01	1.291264e-03
1.580000e+01	1.271349e-03
1.585000e+01	1.251910e-03
1.590000e+01	1.232930e-03
1.595000e+01	1.214396e-03
1.600000e+01	1.196292e-03
1.605000e+01	1.178606e-03
1.610000e+01	1.161324e-03
1.615000e+01	1.144433e-03
1.620000e+01	1.127922e-03
1.625000e+01	1.111779e-03
1.630000e+01	1.095993e-03
1.635000e+01	1.080552e-03
1.640000e+01	1.065447e-03
1.645000e+01	1.050668e-03
1.650000e+01	1.036205e-03
1.655000e+01	1.022049e-03
1.660000e+01	1.008192e-03
1.665000e+01	9.946236e-04
1.670000e+01	9.813368e-04
1.675000e+01	9.683235e-04
1.680000e+01	9.555759e-04
1.685000e+01	9.430868e-04
1.690000e+01	9.308490e-04
1.695000e+01	9.188556e-04
1.700000e+01	9.071000e-04
1.705000e+01	8.955758e-04
1.710000e+01	8.842768e-04
1.715000e+01	8.731970e-04
1.720000e+01	8.623307e-04
1.725000e+01	8.516723e-04
1.730000e+01	8.412164e-04
1.735000e+01	8.309577e-04
1.740000e+01	8.208913e-04
1.745000e+01	8.110122e-04
1.750000e+01	8.013156e-04
1.755000e+01	7.917972e-04
1.760000e+01	7.824523e-04
1.765000e+01	7.732767e-04
1.770000e+01	7.642662e-04
1.775000e+01	7.554169e-04
1.780000e+01	7.467248e-04
1.785000e+01	7.381861e-04
1.790000e+01	7.297971e-04
1.795000e+01	7.215544e-04
1.800000e+01	7.134544e-04
1.805000e+01	7.054937e-04
1.810000e+01	6.976693e-04
1.815000e+01	6.899778e-04
1.820000e+01	6.824163e-04
1.825000e+01	6.749817e-04
1.830000e+01	6.676712e-04
1.835000e+01	6.604820e-04
1.840000e+01	6.534113e-04
1.845000e+01	6.464565e-04
1.850000e+01	6.396151e-04
1.855000e+01	6.328845e-04
1.860000e+01	6.262623e-04
1.865000e+01	6.197461e-04
1.870000e+01	6.133337e-04
1.875000e+01	6.070228e-04
1.880000e+01	6.008112e-04
1.885000e+01	5.946968e-04
1.890000e+01	5.886776e-04
1.895000e+01	5.827516e-04
1.900000e+01	5.769168e-04
1.905000e+01	5.711713e-04
1.910000e+01	5.655133e-04
1.915000e+01	5.599409e-04
1.920000e+01	5.544524e-04
1.925000e+01	5.490462e-04
1.930000e+01	5.437204e-04
1.935000e+01	5.384736e-04
1.940000e+01	5.333042e-04
1.945000e+01	5.282105e-04
1.950000e+01	5.231912e-04
1.955000e+01	5.182446e-04
1.960000e+01	5.133695e-04
1.965000e+01	5.085644e-04
1.970000e+01	5.038280e-04
1.975000e+01	4.991588e-04
1.980000e+01	4.945558e-04
1.985000e+01	4.900175e-04
1.990000e+01	4.855427e-04
1.995000e+01	4.811303e-04
