#omega	spectral weight
-1.000000e+01	5.231617e-04
-9.950000e+00	5.266591e-04
-9.900000e+00	5.301924e-04
-9.850000e+00	5.337620e-04
-9.800000e+00	5.373684e-04
-9.750000e+00	5.410121e-04
-9.700000e+00	5.446937e-04
-9.650000e+00	5.484138e-04
-9.600000e+00	5.521727e-04
-9.550000e+00	5.559712e-04
-9.500000e+00	5.598098e-04
-9.450000e+00	5.636890e-04
-9.400000e+00	5.676094e-04
-9.350000e+00	5.715716e-04
-9.300000e+00	5.755762e-04
-9.250000e+00	5.796239e-04
-9.200000e+00	5.837153e-04
-9.150000e+00	5.878509e-04
-9.100000e+00	5.920316e-04
-9.050000e+00	5.962578e-04
-9.000000e+00	6.005303e-04
-8.950000e+00	6.048498e-04
-8.900000e+00	6.092170e-04
-8.850000e+00	6.136326e-04
-8.800000e+00	6.180974e-04
-8.750000e+00	6.226120e-04
-8.700000e+00	6.271772e-04
-8.650000e+00	6.317938e-04
-8.600000e+00	6.364626e-04
-8.550000e+00	6.411844e-04
-8.500000e+00	6.459600e-04
-8.450000e+00	6.507902e-04
-8.400000e+00	6.556759e-04
-8.350000e+00	6.606179e-04
-8.300000e+00	6.656172e-04
-8.250000e+00	6.706746e-04
-8.200000e+00	6.757910e-04
-8.150000e+00	6.809675e-04
-8.100000e+00	6.862049e-04
-8.050000e+00	6.915041e-04
-8.000000e+00	6.968663e-04
-7.950000e+00	7.022924e-04
-7.900000e+00	7.077835e-04
-7.850000e+00	7.133406e-04
-7.800000e+00	7.189648e-04
-7.750000e+00	7.246571e-04
-7.700000e+00	7.304188e-04
-7.650000e+00	7.362510e-04
-7.600000e+00	7.421547e-04
-7.550000e+00	7.481314e-04
-7.500000e+00	7.541820e-04
-7.450000e+00	7.603080e-04
-7.400000e+00	7.665105e-04
-7.350000e+00	7.727909e-04
-7.300000e+00	7.791505e-04
-7.250000e+00	7.855907e-04
-7.200000e+00	7.921128e-04
-7.150000e+00	7.987183e-04
-7.100000e+00	8.054086e-04
-7.050000e+00	8.121852e-04
-7.000000e+00	8.190496e-04
-6.950000e+00	8.260033e-04
-6.900000e+00	8.330480e-04
-6.850000e+00	8.401852e-04
-6.800000e+00	8.474167e-04
-6.750000e+00	8.547440e-04
-6.700000e+00	8.621690e-04
-6.650000e+00	8.696934e-04
-6.600000e+00	8.773190e-04
-6.550000e+00	8.850476e-04
-6.500000e+00	8.928812e-04
-6.450000e+00	9.008217e-04
-6.400000e+00	9.088711e-04
-6.350000e+00	9.170314e-04
-6.300000e+00	9.253047e-04
-6.250000e+00	9.336931e-04
-6.200000e+00	9.421988e-04
-6.150000e+00	9.508240e-04
-6.100000e+00	9.595710e-04
-6.050000e+00	9.684422e-04
-6.000000e+00	9.774400e-04
-5.950000e+00	9.865667e-04
-5.900000e+00	9.958250e-04
-5.850000e+00	1.005217e-03
-5.800000e+00	1.014747e-03
-5.750000e+00	1.024415e-03
-5.700000e+00	1.034226e-03
-5.650000e+00	1.044182e-03
-5.600000e+00	1.054286e-03
-5.550000e+00	1.064541e-03
-5.500000e+00	1.074950e-03
-5.450000e+00	1.085517e-03
-5.400000e+00	1.096243e-03
-5.350000e+00	1.107134e-03
-5.300000e+00	1.118192e-03
-5.250000e+00	1.129420e-03
-5.200000e+00	1.140823e-03
-5.150000e+00	1.152404e-03
-5.100000e+00	1.164166e-03
-5.050000e+00	1.176114e-03
-5.000000e+00	1.188252e-03
-4.950000e+00	1.200584e-03
-4.900000e+00	1.213113e-03
-4.850000e+00	1.225845e-03
-4.800000e+00	1.238783e-03
-4.750000e+00	1.251933e-03
-4.700000e+00	1.265299e-03
-4.650000e+00	1.278885e-03
-4.600000e+00	1.292697e-03
-4.550000e+00	1.306741e-03
-4.500000e+00	1.321020e-03
-4.450000e+00	1.335541e-03
-4.400000e+00	1.350309e-03
-4.350000e+00	1.365330e-03
-4.300000e+00	1.380610e-03
-4.250000e+00	1.396155e-03
-4.200000e+00	1.411971e-03
-4.150000e+00	1.428064e-03
-4.100000e+00	1.444442e-03
-4.050000e+00	1.461111e-03
-4.000000e+00	1.478077e-03
-3.950000e+00	1.495350e-03
-3.900000e+00	1.512935e-03
-3.850000e+00	1.530840e-03
-3.800000e+00	1.549075e-03
-3.750000e+00	1.567646e-03
-3.700000e+00	1.586562e-03
-3.650000e+00	1.605832e-03
-3.600000e+00	1.625466e-03
-3.550000e+00	1.645471e-03
-3.500000e+00	1.665859e-03
-3.450000e+00	1.686639e-03
-3.400000e+00	1.707821e-03
-3.350000e+00	1.729416e-03
-3.300000e+00	1.751435e-03
-3.250000e+00	1.773889e-03
-3.200000e+00	1.796790e-03
-3.150000e+00	1.820149e-03
-3.100000e+00	1.843981e-03
-3.050000e+00	1.868297e-03
-3.000000e+00	1.893111e-03
-2.950000e+00	1.918437e-03
-2.900000e+00	1.944290e-03
-2.850000e+00	1.970684e-03
-2.800000e+00	1.997634e-03
-2.750000e+00	2.025157e-03
-2.700000e+00	2.053270e-03
-2.650000e+00	2.081989e-03
-2.600000e+00	2.111333e-03
-2.550000e+00	2.141320e-03
-2.500000e+00	2.171969e-03
-2.450000e+00	2.203300e-03
-2.400000e+00	2.235334e-03
-2.350000e+00	2.268092e-03
-2.300000e+00	2.301597e-03
-2.250000e+00	2.335872e-03
-2.200000e+00	2.370942e-03
-2.150000e+00	2.406830e-03
-2.100000e+00	2.443564e-03
-2.050000e+00	2.481170e-03
-2.000000e+00	2.519677e-03
-1.950000e+00	2.559115e-03
-1.900000e+00	2.599513e-03
-1.850000e+00	2.640904e-03
-1.800000e+00	2.683321e-03
-1.750000e+00	2.726799e-03
-1.700000e+00	2.771375e-03
-1.650000e+00	2.817085e-03
-1.600000e+00	2.863969e-03
-1.550000e+00	2.912069e-03
-1.500000e+00	2.961428e-03
-1.450000e+00	3.012090e-03
-1.400000e+00	3.064102e-03
-1.350000e+00	3.117514e-03
-1.300000e+00	3.172377e-03
-1.250000e+00	3.228744e-03
-1.200000e+00	3.286673e-03
-1.150000e+00	3.346221e-03
-1.100000e+00	3.407452e-03
-1.050000e+00	3.470429e-03
-1.000000e+00	3.535221e-03
-9.500000e-01	3.601900e-03
-9.000000e-01	3.670539e-03
-8.500000e-01	3.741218e-03
-8.000000e-01	3.814020e-03
-7.500000e-01	3.889031e-03
-7.000000e-01	3.966343e-03
-6.500000e-01	4.046053e-03
-6.000000e-01	4.128261e-03
-5.500000e-01	4.213075e-03
-5.000000e-01	4.300608e-03
-4.500000e-01	4.390978e-03
-4.000000e-01	4.484312e-03
-3.500000e-01	4.580740e-03
-3.000000e-01	4.680405e-03
-2.500000e-01	4.783453e-03
-2.000000e-01	4.890042e-03
-1.500000e-01	5.000338e-03
-1.000000e-01	5.114517e-03
-5.000000e-02	5.232765e-03
1.421085e-13	5.355280e-03
5.000000e-02	5.482272e-03
1.000000e-01	5.613965e-03
1.500000e-01	5.750596e-03
2.000000e-01	5.892418e-03
2.500000e-01	6.039700e-03
3.000000e-01	6.192729e-03
3.500000e-01	6.351812e-03
4.000000e-01	6.517273e-03
4.500000e-01	6.689464e-03
5.000000e-01	6.868758e-03
5.500000e-01	7.055554e-03
6.000000e-01	7.250281e-03
6.500000e-01	7.453398e-03
7.000000e-01	7.665400e-03
7.500000e-01	7.886816e-03
8.000000e-01	8.118217e-03
8.500000e-01	8.360219e-03
9.000000e-01	8.613483e-03
9.500000e-01	8.878725e-03
1.000000e+00	9.156720e-03
1.050000e+00	9.448303e-03
1.100000e+00	9.754382e-03
1.150000e+00	1.007594e-02
1.200000e+00	1.041405e-02
1.250000e+00	1.076987e-02
1.300000e+00	1.114467e-02
1.350000e+00	1.153983e-02
1.400000e+00	1.195686e-02
1.450000e+00	1.239742e-02
1.500000e+00	1.286332e-02
1.550000e+00	1.335655e-02
1.600000e+00	1.387930e-02
1.650000e+00	1.443398e-02
1.700000e+00	1.502327e-02
1.750000e+00	1.565012e-02
1.800000e+00	1.631779e-02
1.850000e+00	1.702992e-02
1.900000e+00	1.779056e-02
1.950000e+00	1.860423e-02
2.000000e+00	1.947600e-02
2.050000e+00	2.041152e-02
2.100000e+00	2.141720e-02
2.150000e+00	2.250022e-02
2.200000e+00	2.366874e-02
2.250000e+00	2.493200e-02
2.300000e+00	2.630052e-02
2.350000e+00	2.778634e-02
2.400000e+00	2.940323e-02
2.450000e+00	3.116705e-02
2.500000e+00	3.309613e-02
2.550000e+00	3.521171e-02
2.600000e+00	3.753856e-02
2.650000e+00	4.010566e-02
2.700000e+00	4.294712e-02
2.750000e+00	4.610325e-02
2.800000e+00	4.962200e-02
2.850000e+00	5.356074e-02
2.900000e+00	5.798849e-02
2.950000e+00	6.298895e-02
3.000000e+00	6.866424e-02
3.050000e+00	7.514003e-02
3.100000e+00	8.257217e-02
3.150000e+00	9.115569e-02
3.200000e+00	1.011370e-01
3.250000e+00	1.128307e-01
3.300000e+00	1.266426e-01
3.350000e+00	1.431027e-01
3.400000e+00	1.629118e-01
3.450000e+00	1.870088e-01
3.500000e+00	2.166690e-01
3.550000e+00	2.536490e-01
3.600000e+00	3.004015e-01
3.650000e+00	3.603900e-01
3.700000e+00	4.385404e-01
3.750000e+00	5.418338e-01
3.800000e+00	6.799100e-01
3.850000e+00	8.650470e-01
3.900000e+00	1.109436e+00
3.950000e+00	1.414573e+00
4.000000e+00	1.745873e+00
4.050000e+00	2.004151e+00
4.100000e+00	2.059698e+00
4.150000e+00	1.878244e+00
4.200000e+00	1.563349e+00
4.250000e+00	1.238889e+00
4.300000e+00	9.662807e-01
4.350000e+00	7.560312e-01
4.400000e+00	5.986512e-01
4.450000e+00	4.812607e-01
4.500000e+00	3.929550e-01
4.550000e+00	3.256300e-01
4.600000e+00	2.735238e-01
4.650000e+00	2.325859e-01
4.700000e+00	1.999595e-01
4.750000e+00	1.736096e-01
4.800000e+00	1.520676e-01
4.850000e+00	1.342594e-01
4.900000e+00	1.193881e-01
4.950000e+00	1.068543e-01
5.000000e+00	9.620169e-02
5.050000e+00	8.707849e-02
5.100000e+00	7.921039e-02
5.150000e+00	7.238128e-02
5.200000e+00	6.641922e-02
5.250000e+00	6.118616e-02
5.300000e+00	5.657029e-02
5.350000e+00	5.248038e-02
5.400000e+00	4.884142e-02
5.450000e+00	4.559132e-02
5.500000e+00	4.267835e-02
5.550000e+00	4.005919e-02
5.600000e+00	3.769734e-02
5.650000e+00	3.556192e-02
5.700000e+00	3.362667e-02
5.750000e+00	3.186918e-02
5.800000e+00	3.027029e-02
5.850000e+00	2.881357e-02
5.900000e+00	2.748493e-02
5.950000e+00	2.627229e-02
6.000000e+00	2.516536e-02
6.050000e+00	2.415544e-02
6.100000e+00	2.323535e-02
6.150000e+00	2.239936e-02
6.200000e+00	2.164324e-02
6.250000e+00	2.096447e-02
6.300000e+00	2.036241e-02
6.350000e+00	1.983866e-02
6.400000e+00	1.939702e-02
6.450000e+00	1.904203e-02
6.500000e+00	1.877316e-02
6.550000e+00	1.857055e-02
6.600000e+00	1.837781e-02
6.650000e+00	1.811842e-02
6.700000e+00	1.776791e-02
6.750000e+00	1.738482e-02
6.800000e+00	1.704530e-02
6.850000e+00	1.679147e-02
6.900000e+00	1.663649e-02
6.950000e+00	1.658347e-02
7.000000e+00	1.663654e-02
7.050000e+00	1.680559e-02
7.100000e+00	1.710865e-02
7.150000e+00	1.757410e-02
7.200000e+00	1.824291e-02
7.250000e+00	1.916918e-02
7.300000e+00	2.041313e-02
7.350000e+00	2.201595e-02
7.400000e+00	2.395594e-02
7.450000e+00	2.613047e-02
7.500000e+00	2.839608e-02
7.550000e+00	3.058267e-02
7.600000e+00	3.254835e-02
7.650000e+00	3.432285e-02
7.700000e+00	3.604555e-02
7.750000e+00	3.775044e-02
7.800000e+00	3.929565e-02
7.850000e+00	4.045732e-02
7.900000e+00	4.119263e-02
7.950000e+00	4.187042e-02
8.000000e+00	4.285856e-02
8.050000e+00	4.405897e-02
8.100000e+00	4.500571e-02
8.150000e+00	4.531604e-02
8.200000e+00	4.523287e-02
8.250000e+00	4.544939e-02
8.300000e+00	4.638141e-02
8.350000e+00	4.796839e-02
8.400000e+00	4.986805e-02
8.450000e+00	5.154570e-02
8.500000e+00	5.268092e-02
8.550000e+00	5.359613e-02
8.600000e+00	5.481175e-02
8.650000e+00	5.643733e-02
8.700000e+00	5.816300e-02
8.750000e+00	5.958305e-02
8.800000e+00	6.052383e-02
8.850000e+00	6.126517e-02
8.900000e+00	6.227706e-02
8.950000e+00	6.374763e-02
9.000000e+00	6.537303e-02
9.050000e+00	6.662567e-02
9.100000e+00	6.727194e-02
9.150000e+00	6.769672e-02
9.200000e+00	6.861076e-02
9.250000e+00	7.040494e-02
9.300000e+00	7.276921e-02
9.350000e+00	7.479371e-02
9.400000e+00	7.572544e-02
9.450000e+00	7.597385e-02
9.500000e+00	7.687219e-02
9.550000e+00	7.940627e-02
9.600000e+00	8.345949e-02
9.650000e+00	8.777440e-02
9.700000e+00	9.094377e-02
9.750000e+00	9.304910e-02
9.800000e+00	9.569884e-02
9.850000e+00	1.003879e-01
9.900000e+00	1.072980e-01
9.950000e+00	1.152278e-01
1.000000e+01	1.225521e-01
1.005000e+01	1.287532e-01
1.010000e+01	1.351790e-01
1.015000e+01	1.439790e-01
1.020000e+01	1.561893e-01
1.025000e+01	1.709257e-01
1.030000e+01	1.863527e-01
1.035000e+01	2.014901e-01
1.040000e+01	2.177080e-01
1.045000e+01	2.382244e-01
1.050000e+01	2.650189e-01
1.055000e+01	2.966173e-01
1.060000e+01	3.297396e-01
1.065000e+01	3.630147e-01
1.070000e+01	3.983833e-01
1.075000e+01	4.382437e-01
1.080000e+01	4.790089e-01
1.085000e+01	5.097361e-01
1.090000e+01	5.220553e-01
1.095000e+01	5.164332e-01
1.100000e+01	4.956298e-01
1.105000e+01	4.605688e-01
1.110000e+01	4.134330e-01
1.115000e+01	3.607037e-01
1.120000e+01	3.097607e-01
1.125000e+01	2.643069e-01
1.130000e+01	2.251912e-01
1.135000e+01	1.920238e-01
1.140000e+01	1.640350e-01
1.145000e+01	1.406666e-01
1.150000e+01	1.214209e-01
1.155000e+01	1.056985e-01
1.160000e+01	9.278503e-02
1.165000e+01	8.205958e-02
1.170000e+01	7.317325e-02
1.175000e+01	6.596034e-02
1.180000e+01	6.030998e-02
1.185000e+01	5.618371e-02
1.190000e+01	5.361961e-02
1.195000e+01	5.270711e-02
1.200000e+01	5.359730e-02
1.205000e+01	5.647421e-02
1.210000e+01	6.134284e-02
1.215000e+01	6.745535e-02
1.220000e+01	7.253180e-02
1.225000e+01	7.321289e-02
1.230000e+01	6.801607e-02
1.235000e+01	5.909216e-02
1.240000e+01	4.965721e-02
1.245000e+01	4.150386e-02
1.250000e+01	3.502649e-02
1.255000e+01	3.001574e-02
1.260000e+01	2.613684e-02
1.265000e+01	2.309573e-02
1.270000e+01	2.067015e-02
1.275000e+01	1.870028e-02
1.280000e+01	1.707265e-02
1.285000e+01	1.570638e-02
1.290000e+01	1.454314e-02
1.295000e+01	1.354029e-02
1.300000e+01	1.266613e-02
1.305000e+01	1.189674e-02
1.310000e+01	1.121376e-02
1.315000e+01	1.060293e-02
1.320000e+01	1.005299e-02
1.325000e+01	9.554969e-03
1.330000e+01	9.101590e-03
1.335000e+01	8.686921e-03
1.340000e+01	8.306061e-03
1.345000e+01	7.954928e-03
1.350000e+01	7.630090e-03
1.355000e+01	7.328640e-03
1.360000e+01	7.048098e-03
1.365000e+01	6.786331e-03
1.370000e+01	6.541498e-03
1.375000e+01	6.311995e-03
1.380000e+01	6.096422e-03
1.385000e+01	5.893547e-03
1.390000e+01	5.702283e-03
1.395000e+01	5.521667e-03
1.400000e+01	5.350840e-03
1.405000e+01	5.189038e-03
1.410000e+01	5.035572e-03
1.415000e+01	4.889825e-03
1.420000e+01	4.751240e-03
1.425000e+01	4.619310e-03
1.430000e+01	4.493580e-03
1.435000e+01	4.373631e-03
1.440000e+01	4.259085e-03
1.445000e+01	4.149594e-03
1.450000e+01	4.044841e-03
1.455000e+01	3.944533e-03
1.460000e+01	3.848402e-03
1.465000e+01	3.756202e-03
1.470000e+01	3.667704e-03
1.475000e+01	3.582697e-03
1.480000e+01	3.500985e-03
1.485000e+01	3.422389e-03
1.490000e+01	3.346740e-03
1.495000e+01	3.273881e-03
1.500000e+01	3.203667e-03
1.505000e+01	3.135963e-03
1.510000e+01	3.070641e-03
1.515000e+01	3.007583e-03
1.520000e+01	2.946678e-03
1.525000e+01	2.887823e-03
1.530000e+01	2.830920e-03
1.535000e+01	2.775878e-03
1.540000e+01	2.722612e-03
1.545000e+01	2.671039e-03
1.550000e+01	2.621086e-03
1.555000e+01	2.572679e-03
1.560000e+01	2.525751e-03
1.565000e+01	2.480239e-03
1.570000e+01	2.436083e-03
1.575000e+01	2.393226e-03
1.580000e+01	2.351613e-03
1.585000e+01	2.311195e-03
1.590000e+01	2.271923e-03
1.595000e+01	2.233750e-03
1.600000e+01	2.196635e-03
1.605000e+01	2.160535e-03
1.610000e+01	2.125412e-03
1.615000e+01	2.091228e-03
1.620000e+01	2.057948e-03
1.625000e+01	2.025539e-03
1.630000e+01	1.993968e-03
1.635000e+01	1.963205e-03
1.640000e+01	1.933221e-03
1.645000e+01	1.903988e-03
1.650000e+01	1.875480e-03
1.655000e+01	1.847671e-03
1.660000e+01	1.820538e-03
1.665000e+01	1.794057e-03
1.670000e+01	1.768206e-03
1.675000e+01	1.742964e-03
1.680000e+01	1.718312e-03
1.685000e+01	1.694229e-03
1.690000e+01	1.670697e-03
1.695000e+01	1.647699e-03
1.700000e+01	1.625218e-03
1.705000e+01	1.603236e-03
1.710000e+01	1.581740e-03
1.715000e+01	1.560713e-03
1.720000e+01	1.540141e-03
1.725000e+01	1.520010e-03
1.730000e+01	1.500308e-03
1.735000e+01	1.481021e-03
1.740000e+01	1.462137e-03
1.745000e+01	1.443644e-03
1.750000e+01	1.425531e-03
1.755000e+01	1.407787e-03
1.760000e+01	1.390401e-03
1.765000e+01	1.373363e-03
1.770000e+01	1.356664e-03
1.775000e+01	1.340294e-03
1.780000e+01	1.324244e-03
1.785000e+01	1.308504e-03
1.790000e+01	1.293068e-03
1.795000e+01	1.277926e-03
1.800000e+01	1.263071e-03
1.805000e+01	1.248495e-03
1.810000e+01	1.234190e-03
1.815000e+01	1.220150e-03
1.820000e+01	1.206368e-03
1.825000e+01	1.192837e-03
1.830000e+01	1.179551e-03
1.835000e+01	1.166503e-03
1.840000e+01	1.153688e-03
1.845000e+01	1.141099e-03
1.850000e+01	1.128731e-03
1.855000e+01	1.116580e-03
1.860000e+01	1.104638e-03
1.865000e+01	1.092902e-03
1.870000e+01	1.081366e-03
1.875000e+01	1.070026e-03
1.880000e+01	1.058877e-03
1.885000e+01	1.047914e-03
1.890000e+01	1.037134e-03
1.895000e+01	1.026531e-03
1.900000e+01	1.016102e-03
1.905000e+01	1.005842e-03
1.910000e+01	9.957491e-04
1.915000e+01	9.858179e-04
1.920000e+01	9.760452e-04
1.925000e+01	9.664275e-04
1.930000e+01	9.569614e-04
1.935000e+01	9.476435e-04
1.940000e+01	9.384705e-04
1.945000e+01	9.294394e-04
1.950000e+01	9.205471e-04
1.955000e+01	9.117905e-04
1.960000e+01	9.031669e-04
1.965000e+01	8.946733e-04
1.970000e+01	8.863071e-04
1.975000e+01	8.780656e-04
1.980000e+01	8.699461e-04
1.985000e+01	8.619462e-04
1.990000e+01	8.540635e-04
1.995000e+01	8.462955e-04
